"Energy [MeV]" dE/dx "Range [cm]" "Longitudinal Straggling [cm]" "Lateral Straggling [cm]"
0.0009999990000000001 0.9196 0.033996 0.007852 0.007086
0.0011 0.9471 0.036967 0.008235 0.00755
0.0012 0.9740000000000001 0.039869 0.008587000000000001 0.007988
0.0013 1.0003 0.042707 0.008912 0.008402
0.0014 1.0262 0.045484 0.009214 0.008794
0.0015 1.0516 0.048202999999999996 0.009493999999999999 0.009167
0.0016 1.0764 0.050867 0.009756 0.009522
0.0017 1.1009 0.053479 0.010001999999999999 0.009861
0.0018 1.125 0.056041999999999995 0.010232 0.010184
0.002 1.1711 0.061029999999999994 0.010662999999999999 0.010790000000000001
0.00225 1.2259000000000002 0.06703300000000001 0.011144 0.011479999999999999
0.0025 1.27791 0.07280700000000001 0.011567000000000001 0.012107
0.00275 1.3279400000000001 0.078376 0.011944 0.012681999999999999
0.003 1.3767699999999998 0.08376 0.012282 0.01321
0.00325 1.42323 0.088978 0.012588 0.013699000000000001
0.0035 1.46821 0.094042 0.012866999999999998 0.014154
0.00375 1.51162 0.098967 0.013122 0.014578
0.004 1.5544 0.10400000000000001 0.013356 0.014976
0.0045 1.6348500000000001 0.11299999999999999 0.013803 0.015702
0.005 1.71221 0.122 0.014191 0.016350999999999997
0.0055 1.7852800000000002 0.13 0.014533 0.016936
0.006 1.8549 0.13799999999999998 0.014836000000000002 0.017467
0.0065 1.92095 0.146 0.015108000000000002 0.017953999999999998
0.007 1.9843600000000001 0.154 0.015355 0.018402
0.008 2.10501 0.16899999999999998 0.01585 0.019203
0.009 2.21548 0.182 0.016271 0.019902
0.01 2.31957 0.196 0.016636 0.02052
0.011 2.4161099999999998 0.20800000000000002 0.016958 0.021072999999999998
0.012 2.5070099999999997 0.22000000000000003 0.017244 0.021574
0.013 2.59219 0.23199999999999998 0.017502 0.022029
0.014 2.6726 0.244 0.017736000000000002 0.022448
0.015 2.7481899999999997 0.255 0.017950999999999998 0.022835
0.016 2.81993 0.266 0.018149000000000002 0.023194
0.017 2.88681 0.27599999999999997 0.018333000000000002 0.023530000000000002
0.018 2.95079 0.286 0.018505 0.023844999999999998
0.02 3.0680300000000003 0.306 0.018922 0.024421
0.0225 3.1972199999999997 0.331 0.019443000000000002 0.02506
0.025 3.3087299999999997 0.354 0.019905000000000003 0.025629000000000002
0.0275 3.4044899999999996 0.376 0.020322999999999997 0.026143
0.03 3.48743 0.398 0.020707 0.026612
0.0325 3.55751 0.42000000000000004 0.021063 0.027045
0.035 3.61672 0.441 0.021397 0.027449
0.0375 3.66601 0.461 0.021713 0.027826999999999998
0.04 3.70639 0.48200000000000004 0.022014 0.028185
0.045 3.7633300000000003 0.522 0.022938999999999998 0.028849
0.05 3.793466 0.562 0.0238 0.029460000000000004
0.055 3.802743 0.602 0.024616 0.030032
0.06 3.793129 0.642 0.025401 0.030573000000000003
0.065 3.770601 0.682 0.026164 0.031091000000000004
0.07 3.737142 0.722 0.026913 0.031592
0.08 3.644382 0.8039999999999999 0.029549000000000002 0.032559
0.09 3.531776 0.889 0.032094 0.033498
0.1 3.408282 0.976 0.034602999999999995 0.034426
0.11 3.2808699999999997 1.067 0.037108999999999996 0.035357
0.12 3.154522 1.161 0.039635000000000004 0.036299
0.13 3.0302219999999997 1.259 0.042198 0.03726
0.14 2.910963 1.361 0.044806 0.038245999999999995
0.15 2.797735 1.467 0.047469 0.039262
0.16 2.690533 1.577 0.050191 0.040311
0.17 2.5903530000000003 1.6920000000000002 0.052974 0.041398000000000004
0.18 2.495192 1.811 0.055821 0.042525
0.2 2.3229149999999996 2.0629999999999997 0.06664099999999999 0.044908
0.225 2.136632 2.403 0.082702 0.048149000000000004
0.25 1.977402 2.772 0.09827899999999999 0.051699
0.275 1.842211 3.169 0.11399999999999999 0.055572
0.3 1.72405 3.594 0.129 0.059773
0.325 1.621911 4.047 0.145 0.064304
0.35 1.5317910000000001 4.527 0.161 0.069164
0.375 1.4526860000000001 5.035 0.177 0.07435
0.4 1.382594 5.57 0.193 0.079856
0.45 1.261437 6.7170000000000005 0.253 0.09181399999999999
0.5 1.1633099999999998 7.968000000000001 0.31 0.10500000000000001
0.55 1.0802049999999999 9.321 0.366 0.119
0.6 1.009116 10.772 0.421 0.135
0.65 0.948739 12.32 0.476 0.151
0.7 0.8956735 13.963999999999999 0.5309999999999999 0.16899999999999998
0.8 0.807265 17.529 0.735 0.207
0.9 0.7362791000000001 21.46 0.925 0.24900000000000003
1.00 0.6779095 25.750999999999998 1.1099999999999999 0.29500000000000004
1.10 0.6328518 30.377999999999997 1.292 0.34500000000000003
1.20 0.5885031 35.344 1.474 0.398
1.30 0.5518616000000001 40.663 1.659 0.454
1.40 0.5202256000000001 46.319 1.847 0.514
1.50 0.4922942 52.30800000000001 2.036 0.577
1.60 0.4674665 58.625 2.229 0.643
1.70 0.44524179999999997 65.268 2.424 0.713
1.80 0.42511970000000004 72.235 2.623 0.786
2.00 0.3902819 87.118 3.374 0.942
2.25 0.3545436 107.0 4.451 1.154
2.50 0.3253125 130.0 5.471 1.385
2.75 0.30078679999999997 154.0 6.470999999999999 1.6350000000000002
3.00 0.2799652 180.0 7.468000000000001 1.904
3.25 0.26204669999999997 208.0 8.47 2.191
3.50 0.2464307 238.0 9.481 2.496
3.75 0.2327168 270.0 10.506 2.819
4.00 0.2205045 303.0 11.544 3.16
4.50 0.1998838 375.0 15.455000000000002 3.8939999999999997
5.00 0.1830671 454.0 19.136000000000003 4.696
5.50 0.1690533 541.0 22.736 5.566
6.00 0.1571416 634.0 26.320999999999998 6.502
6.50 0.14693170000000003 733.0 29.922000000000004 7.503
7.00 0.13802309999999998 840.0 33.557 8.568999999999999
8.00 0.123309 1072.0 47.091 10.891
9.00 0.11169794000000001 1330.0 59.730999999999995 13.463
10.00 0.10218896999999999 1614.0 72.107 16.279
11.00 0.09424155 1923.0 84.465 19.334
12.00 0.08755532 2257.0 96.922 22.625
13.00 0.08182001 2615.0 110.00000000000001 26.148000000000003
14.00 0.07684542 2997.0 122.0 29.9
15.00 0.07249142 3403.0 135.0 33.876999999999995
16.00 0.0686479 3833.0 149.0 38.076
17.00 0.06521476999999999 4286.0 162.0 42.495999999999995
18.00 0.06214197 4762.0 176.0 47.132
20.00 0.056847190000000006 5782.0 227.99999999999997 57.053
22.50 0.051482349999999996 7183.0 303.0 70.635
25.00 0.04710845 8722.0 373.0 85.501
27.50 0.043485220000000005 10396.0 443.0 102.0
30.00 0.04043251 12203.0 512.0 119.0
32.50 0.0378202 14141.0 582.0 138.0
35.00 0.03555821 16207.0 652.0 157.0
37.50 0.033576470000000004 18400.0 723.0 178.0
40.00 0.031824950000000005 20718.0 795.0 200.0
45.00 0.02888238 25717.0 1066.0 247.00000000000003
50.00 0.0265003 31195.999999999996 1320.0 299.0
55.00 0.02451859 37142.0 1568.0 355.0
60.00 0.022857159999999998 43545.0 1813.0 415.00000000000006
65.00 0.02142593 50393.0 2058.0 479.0
70.00 0.020204879999999998 57677.0 2304.0 546.0
80.00 0.01818315 73496.0 3218.0 692.0
90.00 0.016591790000000002 90952.0 4061.9999999999995 852.0
100.00 0.01530069 110000.00000000001 4879.0 1026.0
